,Voltaje(V),Campo(Oe),Resistencia(Ohm)
0,0.2800000000000001,599.3628671056426,25.897879140000004
1,0.3700000000000001,781.7173843080892,25.89859285
2,0.4600000000000002,964.0431133980333,25.89970121
3,0.5500000000000003,1146.3330321729798,25.9011878
4,0.6500000000000004,1348.8265565920367,25.90296794
5,0.7400000000000004,1531.016721402808,25.904639815000003
6,0.8300000000000005,1713.1475486783327,25.905057335
7,0.9200000000000006,1895.2107740334625,25.905136965
8,1.010000000000001,2077.1977127536616,25.90518589500001
9,1.1000000000000008,2259.099213551888,25.905101965
10,1.2000000000000008,2461.100014400527,25.90407228
11,1.290000000000001,2642.7887282832853,25.903107835
12,1.380000000000001,2824.3600459811487,25.9027876
13,1.470000000000001,3005.802412237508,25.90316668
14,1.5600000000000012,3187.1035688695506,25.902850049999994
15,1.6600000000000013,3388.3678350826785,25.902095225
16,1.750000000000001,3569.3271980007594,25.902177435
17,1.8400000000000012,3750.102215637127,25.901662635
18,1.9300000000000013,3930.677254163071,25.901318175
19,2.020000000000001,4111.035740469975,25.901462270000003
20,2.109999999999999,4291.160115926196,25.90146094
21,2.209999999999997,4491.001089187776,25.90194644
22,2.299999999999995,4670.568867956353,25.901436615
23,2.389999999999993,4849.841102707531,25.90043364
24,2.479999999999991,5028.7956973768605,25.90072165
25,2.569999999999989,5207.409334023168,25.90035677500001
26,2.669999999999987,5405.439093643566,25.900199785
27,2.759999999999985,5583.250590415711,25.899695490000006
28,2.849999999999983,5760.64026664972,25.89976759
29,2.9399999999999813,5937.579295295278,25.89933787
30,3.02999999999998,6114.037391071651,25.899797055
31,3.119999999999977,6289.982764224554,25.89915428
32,3.2199999999999758,6484.835676976974,25.89842958000001
33,3.3099999999999734,6659.58720333306,25.897300995
34,3.3999999999999715,6833.716980574593,25.897720530000004
35,3.4899999999999696,7007.186548051241,25.897524935
36,3.579999999999968,7179.9557042854285,25.897790319999995
37,3.6799999999999655,7371.048832049767,25.897104935000005
38,3.769999999999964,7542.199222628546,25.89720612
39,3.8599999999999617,7712.512494171457,25.896566770000003
40,3.94999999999996,7881.940802628544,25.896877870000004
41,4.039999999999958,8050.4343267689055,25.896207145
42,4.129999999999956,8217.941221937583,25.895702175000004
43,4.229999999999954,8402.83719089772,25.8950633
44,4.319999999999952,8568.081575612783,25.895616815
45,4.40999999999995,8732.164593120135,25.89518671
46,4.4999999999999485,8895.025594405517,25.89481764
47,4.589999999999947,9056.601670676917,25.89470024
48,4.689999999999944,9234.544234955656,25.89413843
49,4.779999999999943,9393.19066695873,25.893750095
50,4.869999999999941,9550.341502455543,25.893043615
51,4.959999999999939,9705.924056618462,25.892970075
52,5.049999999999937,9859.863148488379,25.893301585
53,5.139999999999935,10012.081054731614,25.892630775
54,5.239999999999933,10179.095616765664,25.89240846
55,5.329999999999931,10327.412962140232,25.891933155
56,5.419999999999929,10473.750553486578,25.891764355000003
57,5.509999999999927,10618.019729648482,25.89167252
58,5.599999999999925,10760.12905074144,25.89177714
59,5.699999999999923,10915.380384049151,25.891399765
60,5.789999999999921,11052.616956218562,25.891010675
61,5.879999999999919,11187.390919707323,25.890908815
62,5.969999999999917,11319.598925132063,25.890680980000003
63,6.059999999999915,11449.134608027436,25.89070683
64,6.149999999999913,11575.888542602994,25.890811355
65,6.249999999999911,11713.32672523678,25.891172695
66,6.339999999999909,11833.834688559746,25.891207125
67,6.429999999999907,11951.20038657527,25.89135571
68,6.519999999999905,12065.301322207133,25.89061442
69,6.609999999999904,12176.011700700305,25.89040127
70,6.709999999999901,12294.88947020599,25.890359785
71,6.7999999999999,12398.013795867466,25.889859375
72,6.8899999999998975,12497.334610238535,25.8898325
73,6.979999999999896,12592.712075602063,25.88975029
74,7.069999999999894,12684.002820208416,25.88992826
75,7.159999999999892,12771.059892032345,25.89035015
76,7.25999999999989,12862.641283961651,25.889904215
77,7.349999999999888,12940.261640969544,25.88951835
78,7.439999999999886,13013.167741200728,25.88950662
79,7.529999999999884,13081.197427880934,25.889324955
80,7.619999999999882,13144.18472760657,25.889066885
81,7.71999999999988,13208.050005643989,25.888944915000003
82,7.809999999999878,13259.829776166218,25.88887358
83,7.899999999999876,13306.02588662158,25.888540465
84,7.989999999999874,13346.456187181127,25.888963135
85,7.9300000000000015,13320.152410380642,25.888716604999995
86,7.840000000000003,13275.857798491541,25.887833785
87,7.740000000000005,13220.029974533005,25.888691235
88,7.650000000000007,13164.030721493667,25.889238345000003
89,7.560000000000009,13102.761766722995,25.88841715
90,7.470000000000011,13036.394244397407,25.88860159
91,7.380000000000013,12965.095410406506,25.88919219
92,7.280000000000015,12880.289487258224,25.88915052
93,7.190000000000017,12799.112179234406,25.889248365
94,7.100000000000019,12713.499613150501,25.889598375
95,7.010000000000021,12623.603586666317,25.8893034
96,6.920000000000023,12529.572255508554,25.88969841
97,6.830000000000025,12431.550179713926,25.890190035
98,6.730000000000027,12318.12764863903,25.890534405
99,6.640000000000029,12212.139480006139,25.891055294999997
100,6.550000000000031,12102.58781824558,25.891072365000003
101,6.460000000000033,11989.602926951175,25.89141713
102,6.370000000000035,11873.311710380463,25.891444695
103,6.270000000000037,11740.371669184899,25.891320030000003
104,6.180000000000039,11617.502328031424,25.891015635
105,6.090000000000041,11491.700495516576,25.89175949
106,6.000000000000043,11363.079751131329,25.891690635
107,5.9100000000000446,11231.750551384077,25.89139882
108,5.820000000000047,11097.820276043743,25.892349620000005
109,5.720000000000049,10946.08503140779,25.892581555
110,5.6300000000000505,10807.002646220897,25.892685235000005
111,5.540000000000052,10665.634083726478,25.892972845
112,5.450000000000054,10522.074560713803,25.89256964
113,5.360000000000056,10376.416453586382,25.893296895
114,5.260000000000058,10212.221673793623,25.89382286
115,5.17000000000006,10062.424065497375,25.89378767
116,5.080000000000062,9910.797605731597,25.89362574
117,4.990000000000064,9757.423479596477,25.894337940000003
118,4.900000000000066,9602.380268160137,25.894263360000004
119,4.810000000000068,9445.743994701748,25.894933125
120,4.71000000000007,9269.92461191909,25.89506016
121,4.620000000000072,9110.163619496212,25.89567881
122,4.530000000000074,8949.030228533771,25.896232325
123,4.440000000000076,8786.590432794535,25.896008395000003
124,4.350000000000078,8622.907904606021,25.896250725
125,4.25000000000008,8439.655503530408,25.896875475
126,4.160000000000082,8273.548344761411,25.897110075
127,4.070000000000084,8106.382203339212,25.897589395
128,3.9800000000000857,7938.2116937512465,25.897600085000004
129,3.890000000000088,7769.08934540341,25.89690915
130,3.8000000000000895,7599.065648863163,25.897395615
131,3.700000000000092,7409.152214696883,25.898518180000003
132,3.6100000000000936,7237.382571175204,25.899113275
133,3.5200000000000955,7064.856126561107,25.89926462
134,3.4300000000000974,6891.615475368889,25.899678135
135,3.3400000000001,6717.70140962812,25.899671455000004
136,3.240000000000101,6523.7211719379175,25.90026093
137,3.1500000000001034,6348.511566590056,25.900484945
138,3.0600000000001053,6172.744432061141,25.901109790000003
139,2.970000000000107,5996.45363600391,25.90109406
140,2.880000000000109,5819.671479940069,25.901524255
141,2.7800000000001117,5622.707964622461,25.9021513
142,2.690000000000113,5444.987787555,25.902096845
143,2.600000000000115,5266.867232431589,25.902641585000005
144,2.510000000000117,5088.372648073428,25.903255845
145,2.420000000000119,4909.5290535243885,25.9031724
146,2.330000000000121,4730.360184294135,25.903488910000004
147,2.230000000000123,4530.929491501224,25.903777685
148,2.140000000000125,4351.14636723293,25.90421066
149,2.050000000000127,4171.104107642921,25.904568
150,1.960000000000128,3990.821657327265,25.9051691
151,1.870000000000128,3810.316913701522,25.905363745
152,1.7700000000001277,3609.515891356877,25.90610294
153,1.6800000000001276,3428.5961894428883,25.90654346
154,1.5900000000001275,3247.5036821153976,25.906635765
155,1.5000000000001277,3066.2524475527034,25.906607529999995
156,1.4100000000001274,2884.855753106292,25.906685835
157,1.3200000000001273,2703.3261015439616,25.90705577
158,1.2200000000001272,2501.4848614934967,25.90712376
159,1.1300000000001271,2319.712406268476,25.907812215
160,1.040000000000127,2137.841505699607,25.90892363
161,0.950000000000127,1955.8820051043378,25.90847177
162,0.8600000000001269,1773.8432215701234,25.909184555000003
163,0.7600000000001268,1571.4956513080965,25.910016925
164,0.6700000000001267,1389.3179782913544,25.90966749
165,0.5800000000001266,1207.0871345987464,25.909138875000004
166,0.4900000000001265,1024.8107515437068,25.90760841
167,0.4000000000001265,842.496168563382,25.905230145
168,0.3100000000001264,660.1504794617429,25.903837495
169,0.2100000000001263,457.5160558218512,25.9039795
170,0.1200000000001262,275.12715444979597,25.903312015
171,0.0300000000001262,92.72814956164265,25.901672175
172,-0.0599999999998737,-89.67438902574386,25.900265405
173,-0.1499999999998737,-272.07390077497166,25.899107935
174,-0.2499999999998738,-474.72844801657084,25.900563440000003
175,-0.3399999999998739,-657.099801141635,25.9023859
176,-0.429999999999874,-839.447272378393,25.90493288
177,-0.519999999999874,-1021.7638535002305,25.90581589
178,-0.6099999999998741,-1204.0423092063047,25.90719225
179,-0.6999999999998742,-1386.275130878428,25.90831956
180,-0.7999999999998743,-1588.6929891269845,25.9103798
181,-0.8899999999998743,-1770.8033184496958,25.910020445
182,-0.9799999999998744,-1952.8424018795235,25.909900969999995
183,-1.0699999999998744,-2134.801121322144,25.909733495
184,-1.1599999999998745,-2316.6698490121867,25.90899419
185,-1.2499999999998743,-2498.43840127012,25.908988665
186,-1.3499999999998746,-2700.2728294252947,25.90842017
187,-1.4399999999998747,-2881.793689862515,25.908753115000003
188,-1.5299999999998748,-3063.178633371535,25.909214775
189,-1.6199999999998749,-3244.414705009773,25.90810108
190,-1.709999999999875,-3425.488157566785,25.907906245000003
191,-1.809999999999875,-3626.4723866409267,25.907989305
192,-1.8999999999998751,-3807.1535557905177,25.907987970000004
193,-1.9899999999998752,-3987.623766325659,25.907398229999995
194,-2.079999999999873,-4167.865528096524,25.90649223
195,-2.169999999999872,-4347.86032233173,25.90554761
196,-2.2599999999998697,-4527.588555395204,25.90493889
197,-2.3599999999998675,-4726.948724610228,25.905223835
198,-2.4499999999998656,-4906.044769840789,25.90489502
199,-2.539999999999864,-5084.805918262593,25.90487098
200,-2.629999999999862,-5263.207671513275,25.90463590000001
201,-2.71999999999986,-5441.2242200120945,25.90441665
202,-2.8199999999998577,-5638.535511836745,25.904007425
203,-2.909999999999856,-5815.647926221323,25.903487105
204,-2.999999999999854,-5992.285950225956,25.903616625
205,-3.089999999999852,-6168.417897867276,25.903745375
206,-3.17999999999985,-6344.010535589836,25.903023815000005
207,-3.269999999999848,-6519.029036022989,25.902198885
208,-3.369999999999846,-6712.776254382707,25.9020483
209,-3.459999999999844,-6886.460877395356,25.901973635
210,-3.549999999999842,-7059.45231492006,25.901777355
211,-3.63999999999984,-7231.708701396637,25.901807684999994
212,-3.7299999999998383,-7403.186341096003,25.901135535
213,-3.829999999999836,-7592.7482138144205,25.900808335
214,-3.9199999999998334,-7762.429835833285,25.9004488
215,-4.009999999999833,-7931.184560931424,25.90004454
216,-4.099999999999831,-8098.960683513886,25.899725435000004
217,-4.189999999999829,-8265.704431463122,25.899262425
218,-4.279999999999827,-8431.35991989587,25.89907636
219,-4.379999999999825,-8614.074548218967,25.898668675
220,-4.469999999999823,-8777.2393028576,25.898418715
221,-4.559999999999821,-8939.127918799122,25.89802609
222,-4.649999999999819,-9099.675339507488,25.897443765
223,-4.739999999999817,-9258.814159327232,25.897236634999995
224,-4.839999999999815,-9433.898027811323,25.89696026
225,-4.929999999999813,-9589.830940314241,25.896819305
226,-5.019999999999811,-9744.130018849017,25.896814245
227,-5.109999999999809,-9896.717714431077,25.896230425
228,-5.199999999999807,-10047.513892602732,25.896042540000003
229,-5.2899999999998055,-10196.435787190054,25.896135915
230,-5.389999999999803,-10359.602309539396,25.896050635
231,-5.4799999999998015,-10504.283473962349,25.895345495000004
232,-5.5699999999998,-10646.815526217695,25.895369520000003
233,-5.659999999999798,-10787.104395015482,25.895322035000003
234,-5.749999999999796,-10925.053140995831,25.89526339
235,-5.849999999999794,-11075.463387356474,25.8949028
236,-5.939999999999792,-11208.140357102975,25.8946969
237,-6.02999999999979,-11338.156769595931,25.89448786
238,-6.119999999999788,-11465.403408683109,25.893947215
239,-6.209999999999786,-11589.76795378863,25.89381924
240,-6.299999999999784,-11711.134933669875,25.89350195
241,-6.399999999999782,-11842.327027862815,25.893436055
242,-6.48999999999978,-11956.972168002156,25.89357587
243,-6.579999999999778,-12068.239846510713,25.89259893
244,-6.669999999999776,-12176.001153566593,25.892608175
245,-6.759999999999774,-12280.12379232745,25.892918965
246,-6.859999999999772,-12391.382836424822,25.892886550000004
247,-6.94999999999977,-12487.373877543483,25.892762945
248,-7.039999999999768,-12579.292496153867,25.892894060000003
249,-7.129999999999766,-12666.991985158029,25.891765685000003
250,-7.219999999999764,-12750.322014083875,25.89141607
251,-7.309999999999762,-12829.128582842031,25.891385475000003
252,-7.40999999999976,-12911.19419096075,25.89147252
253,-7.499999999999758,-12979.928723981568,25.89188728
254,-7.5899999999997565,-13043.636714184397,25.89176579
255,-7.679999999999755,-13102.148589437358,25.89156103
256,-7.769999999999753,-13155.290871637597,25.89041919
257,-7.8699999999997505,-13207.82424159149,25.890420445
258,-7.959999999999749,-13249.043179039234,25.89044199
259,-7.960000000000001,-13249.043179039341,25.890777095
260,-7.870000000000003,-13207.824241591614,25.890827745
261,-7.780000000000005,-13160.856444420317,25.8897666
262,-7.690000000000007,-13108.321663427128,25.890504645000004
263,-7.590000000000009,-13043.636714184568,25.890472715
264,-7.500000000000011,-12979.928723981753,25.890735905000003
265,-7.410000000000013,-12911.194190960949,25.890999885000003
266,-7.3200000000000145,-12837.598827526172,25.890741815
267,-7.230000000000016,-12759.304532596701,25.890337765000005
268,-7.1300000000000185,-12666.991985158269,25.891302765
269,-7.0400000000000205,-12579.292496154118,25.8914054
270,-6.950000000000022,-12487.373877543747,25.89155856
271,-6.860000000000024,-12391.382836425099,25.891313165
272,-6.770000000000026,-12291.462502765067,25.891584675
273,-6.680000000000028,-12187.752475642634,25.89189157
274,-6.58000000000003,-12068.239846511022,25.89180117
275,-6.490000000000032,-11956.972168002474,25.892735300000005
276,-6.400000000000034,-11842.32702786314,25.892805095
277,-6.310000000000036,-11724.429995137578,25.893307875
278,-6.220000000000038,-11603.403344336111,25.89357309
279,-6.12000000000004,-11465.40340868346,25.893006715
280,-6.030000000000042,-11338.156769596291,25.893729200000003
281,-5.940000000000044,-11208.140357103344,25.8936182
282,-5.850000000000046,-11075.463387356851,25.893345940000007
283,-5.760000000000048,-10940.232018328526,25.89357348
284,-5.67000000000005,-10802.549396052675,25.89465533
285,-5.570000000000052,-10646.81552621809,25.89502917
286,-5.480000000000054,-10504.28347396275,25.895203880000004
287,-5.390000000000056,-10359.602309539803,25.895072270000004
288,-5.3000000000000576,-10212.863282412374,25.895585255000004
289,-5.21000000000006,-10064.154866459887,25.89559049
290,-5.110000000000062,-9896.717714431501,25.895239055
291,-5.020000000000064,-9744.13001884945,25.896469985
292,-4.930000000000065,-9589.830940314678,25.89624196
293,-4.840000000000067,-9433.898027811763,25.896595955
294,-4.750000000000069,-9276.40629109527,25.89801198
295,-4.660000000000071,-9117.428246932877,25.89875402
296,-4.560000000000073,-8939.127918799575,25.897931090000004
297,-4.470000000000075,-8777.239302858055,25.898418715
298,-4.380000000000077,-8614.074548219427,25.89823905
299,-4.290000000000079,-8449.696408543427,25.898862075
300,-4.200000000000081,-8284.165380856612,25.900020305000005
301,-4.100000000000083,-8098.960683514355,25.89924365
302,-4.010000000000085,-7931.184560931896,25.899687675
303,-3.920000000000087,-7762.429835833762,25.90018081
304,-3.830000000000089,-7592.748213814898,25.900347415
305,-3.740000000000091,-7422.189380190767,25.90127592
306,-3.6500000000000927,-7250.80104624046,25.901392554999997
307,-3.550000000000095,-7059.452314920545,25.90170202
308,-3.4600000000000968,-6886.460877395843,25.901546000000003
309,-3.3700000000000987,-6712.776254383195,25.90210465
310,-3.2800000000001006,-6538.438527517,25.902402595
311,-3.1900000000001025,-6363.486040748988,25.903375905
312,-3.0900000000001047,-6168.41789786777,25.903452595
313,-3.0000000000001066,-5992.285950226451,25.90372124
314,-2.9100000000001085,-5815.64792622182,25.90332727
315,-2.8200000000001104,-5638.535511837243,25.903953160000004
316,-2.7300000000001123,-5460.978891727115,25.904041875
317,-2.6400000000001143,-5283.006795459985,25.904190820000004
318,-2.550000000000116,-5104.64654376166,25.905064965
319,-2.460000000000118,-4925.924094758328,25.9052065
320,-2.37000000000012,-4746.86409021967,25.905251115
321,-2.270000000000122,-4547.541015958509,25.906000620000004
322,-2.180000000000124,-4367.843658539569,25.906398385
323,-2.090000000000126,-4187.877494519822,25.906645495
324,-2.000000000000128,-4007.6622398192594,25.90729542
325,-1.910000000000128,-3827.2165303550632,25.906887345
326,-1.820000000000128,-3646.557968284735,25.90712595
327,-1.7300000000001277,-3465.7031682492006,25.907729145
328,-1.6400000000001276,-3284.667803615928,25.907806220000005
329,-1.5500000000001275,-3103.4666527220425,25.908368385
330,-1.4500000000001274,-2901.9545147547747,25.908441835
331,-1.360000000000127,-2720.448140043626,25.908727830000004
332,-1.2700000000001272,-2538.8167361785854,25.909086710000004
333,-1.1800000000001272,-2357.0718877657587,25.909686085
334,-1.090000000000127,-2175.2245207346123,25.909751505
335,-1.000000000000127,-1993.2849485810866,25.910120775000003
336,-0.9100000000001268,-1811.2629186107133,25.910656255000003
337,-0.8200000000001268,-1629.1676581817312,25.91097717
338,-0.7200000000001268,-1426.7643356206759,25.910876555
339,-0.6300000000001267,-1244.542705775359,25.91045046
340,-0.5400000000001266,-1062.273731545302,25.908762544999995
341,-0.4500000000001265,-879.9649885658096,25.907429314999995
342,-0.3600000000001264,-697.6237688785933,25.90625725
343,-0.2700000000001263,-515.2571271748889,25.90552702
344,-0.1800000000001262,-332.8719270385701,25.90426636
345,-0.0800000000001262,-130.2081068231401,25.902798260000004
346,0.0099999999998737,52.19432667137045,25.901435860000003
347,0.0999999999998737,234.594683537646,25.89991017
348,0.1899999999998737,416.9864000172451,25.900254435
349,0.2799999999998738,599.3628671053867,25.902289675
350,0.3699999999998739,781.7173843078335,25.90398303
351,0.469999999999874,984.2994477168462,25.905622195
352,0.559999999999874,1166.5849445446395,25.907819160000003
353,0.6499999999998741,1348.8265565917811,25.90936833
